time,vout,force
0.02499999999999991,0.809634614365532,7.9032
0.030000000000000027,0.8125820087808572,8.0327
0.03499999999999992,0.8143756212858204,8.164
0.040000000000000036,0.8195415432365472,8.2974
0.04499999999999993,0.8227511052554718,8.4315
0.050000000000000044,0.8255398519610468,8.5648
0.05499999999999994,0.8287847083317849,8.6938
0.06000000000000005,0.8307879530652388,8.8175
0.06499999999999995,0.83282841151056,8.9351
0.06999999999999984,0.8339999914169312,9.0471
0.07499999999999996,0.8348184714220834,9.1553
0.07999999999999985,0.8368804104727432,9.261
0.08499999999999996,0.8388905463944869,9.3655
0.08999999999999986,0.8408242603258813,9.4709
0.09499999999999997,0.8420000076293945,9.5805
0.09999999999999987,0.843434781672736,9.6942
0.10499999999999998,0.8467747496488071,9.8116
0.10999999999999988,0.8488009739896382,9.9316
0.11499999999999999,0.8508089088825903,10.0533
0.11999999999999988,0.8527163643379508,10.177
0.125,0.854698534892953,10.3037
0.1299999999999999,0.8566536561126419,10.4344
0.135,0.8588323284745719,10.57
0.1399999999999999,0.860845601751554,10.7109
0.14500000000000002,0.8627737173896688,10.8572
0.1499999999999999,0.8647036733493413,11.0089
0.15500000000000003,0.8666619497401464,11.1648
0.15999999999999992,0.8687836457422585,11.3224
0.16500000000000004,0.8707605051209804,11.4798
0.16999999999999993,0.8727295436671563,11.6357
0.17500000000000004,0.8748287822255363,11.7888
0.17999999999999994,0.8768908672510128,11.9385
0.18500000000000005,0.8788913595670735,12.0847
0.18999999999999995,0.8799999952316284,12.228
0.19499999999999984,0.8807776752846227,12.3709
0.19999999999999996,0.8828195400671526,12.5153
0.20499999999999985,0.8848861870340481,12.6622
0.20999999999999996,0.8868464936847822,12.8129
0.21499999999999986,0.8887840881279144,12.9668
0.21999999999999997,0.890782172786085,13.1217
0.22499999999999987,0.8928216311344803,13.2751
0.22999999999999998,0.8939999938011169,13.4237
0.23499999999999988,0.8947891669889757,13.566
0.24,0.8967916744176145,13.7014
0.24499999999999988,0.8987832676686236,13.8309
0.25,0.9007782784631334,13.955
0.2549999999999999,0.9020000100135804,14.0766
0.26,0.9027854791172828,14.1977
0.2649999999999999,0.9047876004376296,14.3197
0.27,0.906000018119812,14.4452
0.2749999999999999,0.9068124836008776,14.5755
0.28,0.9088226536391438,14.7107
0.2849999999999999,0.9100000262260436,14.8493
0.29000000000000004,0.9108914089896354,14.9902
0.29499999999999993,0.912890106630373,15.1337
0.30000000000000004,0.9148509526908185,15.2804
0.30499999999999994,0.9160000085830688,15.4305
0.31000000000000005,0.916886181874394,15.5846
0.31499999999999995,0.9188907031071447,15.7429
0.31999999999999984,0.9208931747139066,15.9056
0.32499999999999996,0.921999990940094,16.0728
0.32999999999999985,0.9228285718560639,16.2438
0.33499999999999996,0.9247943221026775,16.4161
0.33999999999999986,0.9259999990463256,16.5877
0.345,0.9268130178175056,16.7559
0.34999999999999987,0.9288267178218785,16.9192
0.355,0.9300000071525574,17.0774
0.3599999999999999,0.9308493852962879,17.2311
0.365,0.9327921460413978,17.3825
0.3699999999999999,0.9347828882603725,17.5338
0.375,0.936782054029978,17.6866
0.3799999999999999,0.9380000233650208,17.8414
0.385,0.9388233799208383,17.9995
0.3899999999999999,0.9408483873303701,18.1598
0.395,0.942819284948073,18.3206
0.3999999999999999,0.944000005722046,18.4795
0.405,0.9448270037248088,18.6322
0.4099999999999999,0.9459999799728394,18.7776
0.41500000000000004,0.9468353938287407,18.9162
0.41999999999999993,0.9480000138282776,19.0494
0.42500000000000004,0.9488392521700355,19.1788
0.42999999999999994,0.949999988079071,19.3079
0.43500000000000005,0.950829287184849,19.4399
0.43999999999999995,0.9520000219345092,19.5763
0.44499999999999984,0.9528291355536481,19.7186
0.44999999999999973,0.9548528171121867,19.8667
0.45500000000000007,0.9559999704360962,20.0193
0.45999999999999996,0.9559999704360962,20.175
0.46499999999999986,0.9559999704360962,20.3341
0.46999999999999975,0.9567735705354037,20.4965
0.4750000000000001,0.9587893397390197,20.6632
0.48,0.9607766252191932,20.8354
0.4849999999999999,0.962000012397766,21.0143
0.48999999999999977,0.9628865784140054,21.2003
0.4950000000000001,0.9648879163731395,21.3928
0.5,0.9668516959563753,21.591
0.5049999999999999,0.9679999947547911,21.7922
0.5099999999999998,0.9687533492389028,21.9936
0.5150000000000001,0.9700000286102296,22.1918
0.52,0.9707819649843129,22.3846
0.5249999999999999,0.9726678556354549,22.5701
0.5299999999999998,0.9739999771118164,22.7488
0.5350000000000001,0.9748367665354831,22.9218
0.54,0.9760000109672546,23.0922
0.5449999999999999,0.976892176796281,23.2634
0.5499999999999998,0.9788470030386296,23.4379
0.5550000000000002,0.9807723772046713,23.6173
0.56,0.9827710706219034,23.8012
0.565,0.984000027179718,23.9869
0.5699999999999998,0.9848480850238925,24.1715
0.5749999999999997,0.9860000014305116,24.3521
0.5800000000000001,0.9868922461681189,24.5268
0.585,0.9879999756813048,24.695
0.5899999999999999,0.988765511684793,24.8558
0.5949999999999998,0.9900000095367432,25.0099
0.6000000000000001,0.9907645478323149,25.1594
0.605,0.9919999837875366,25.3075
0.6099999999999999,0.9928289511430816,25.4566
0.6149999999999998,0.9940000176429749,25.6104
0.6200000000000001,0.9940000176429749,25.7693
0.625,0.9947483678535598,25.9332
0.6299999999999999,0.9967041741456333,26.1016
0.6349999999999998,0.998764835156557,26.2731
0.6400000000000001,1.0,26.4482
0.645,1.0,26.6263
0.6499999999999999,1.0008941016603072,26.807
0.6549999999999998,1.0019999742507937,26.9913
0.6600000000000001,1.0028479278873434,27.1791
0.665,1.0048304529300234,27.371
0.6699999999999999,1.00600004196167,27.5682
0.6749999999999998,1.00600004196167,27.7699
0.6800000000000002,1.00600004196167,27.9754
0.685,1.00600004196167,28.1836
0.69,1.0068206160263822,28.3923
0.6949999999999998,1.0080000162124634,28.5993
0.6999999999999997,1.0080000162124634,28.8037
0.7050000000000001,1.008774062846123,29.0043
0.71,1.0099999904632568,29.2026
0.7149999999999999,1.0099999904632568,29.3991
0.7199999999999998,1.0107619106223173,29.5959
0.7250000000000001,1.0119999647140503,29.7949
0.73,1.01284944330713,29.998
0.7349999999999999,1.0140000581741333,30.2054
0.7399999999999998,1.0148682330927346,30.4161
0.7450000000000001,1.0160000324249268,30.628
0.75,1.0167468969707423,30.8377
0.7549999999999999,1.0180000066757202,31.0417
0.7599999999999998,1.018765349234371,31.2381
0.7650000000000001,1.0199999809265137,31.4249
0.77,1.0199999809265137,31.602
0.7749999999999999,1.0207111321990974,31.7718
0.7799999999999998,1.0219999551773071,31.9365
0.7850000000000001,1.0219999551773071,32.1
0.79,1.0228551853377132,32.2651
0.7949999999999999,1.02400004863739,32.4349
0.7999999999999998,1.02400004863739,32.6093
0.8050000000000002,1.0248325265181957,32.7884
0.81,1.0260000228881836,32.9719
0.815,1.0267176007440941,33.1594
0.8199999999999998,1.027999997138977,33.3509
0.8249999999999997,1.027999997138977,33.5478
0.8300000000000001,1.0288926386687938,33.7517
0.835,1.0299999713897705,33.9636
0.8399999999999999,1.0308934915411299,34.1837
0.8449999999999998,1.031999945640564,34.4118
0.8500000000000001,1.031999945640564,34.6464
0.855,1.0328096918777996,34.8854
0.8599999999999999,1.034000039100647,35.1252
0.8649999999999998,1.0348923505842187,35.3617
0.8700000000000001,1.0360000133514404,35.5923
0.875,1.0360000133514404,35.8157
0.8799999999999999,1.0366652773675205,36.0327
0.8849999999999998,1.037999987602234,36.2449
0.8900000000000001,1.037999987602234,36.4554
0.895,1.0388925189205436,36.6674
0.8999999999999999,1.0399999618530271,36.8827
0.9049999999999998,1.0399999618530271,37.102
0.9100000000000001,1.0408911045385152,37.323
0.915,1.0420000553131104,37.5436
0.9199999999999999,1.0420000553131104,37.76
0.9249999999999998,1.0420000553131104,37.9681
0.9300000000000002,1.0420000553131104,38.166
0.935,1.0427611371174115,38.353
0.94,1.0440000295639038,38.5297
0.9449999999999998,1.0440000295639038,38.6972
0.9499999999999997,1.0447759435446233,38.8594
0.9550000000000001,1.0460000038146973,39.02
0.96,1.0460000038146973,39.182
0.9649999999999999,1.0467745675441713,39.3482
0.9699999999999998,1.0479999780654907,39.5195
0.9750000000000001,1.0479999780654907,39.6958
0.98,1.0479999780654907,39.8766
0.9849999999999999,1.048860143096357,40.0614
0.9899999999999998,1.0499999523162842,40.2504
0.9950000000000001,1.0499999523162842,40.4447
1.0,1.050715648409832,40.6452
1.005,1.0520000457763672,40.8532
1.0099999999999998,1.0520000457763672,41.0697
1.0150000000000001,1.0527733491241804,41.2942
1.02,1.0540000200271606,41.5268
1.025,1.0548136991995503,41.7662
1.0299999999999998,1.055999994277954,42.0094
1.0350000000000001,1.055999994277954,42.252
1.04,1.056738553055523,42.4899
1.045,1.0579999685287476,42.7203
1.0499999999999998,1.0587701771917237,42.9413
1.0550000000000002,1.059999942779541,43.1534
1.06,1.059999942779541,43.3588
1.065,1.059999942779541,43.5606
1.0699999999999998,1.060778023774028,43.7612
1.0749999999999997,1.062000036239624,43.9633
1.08,1.062000036239624,44.1688
1.085,1.062000036239624,44.378
1.0899999999999999,1.0626985318431816,44.5887
1.0949999999999998,1.0640000104904177,44.7976
1.1,1.0640000104904177,45.0014
1.105,1.0647720930475604,45.1976
1.1099999999999999,1.065999984741211,45.385
1.1149999999999998,1.065999984741211,45.564
1.12,1.065999984741211,45.7362
1.125,1.0667730871959047,45.9051
1.13,1.0679999589920044,46.0748
1.1349999999999998,1.0679999589920044,46.2479
1.1400000000000001,1.0679999589920044,46.4261
1.145,1.0679999589920044,46.6104
1.15,1.068846704116407,46.8007
1.1549999999999998,1.0700000524520874,46.9961
1.1600000000000001,1.0700000524520874,47.1964
1.165,1.0700000524520874,47.4019
1.17,1.0708517479604773,47.6128
1.1749999999999998,1.0720000267028809,47.8291
1.1800000000000002,1.0727647497482253,48.052
1.185,1.0740000009536743,48.2824
1.19,1.0740000009536743,48.5202
1.1949999999999998,1.0740000009536743,48.7656
1.1999999999999997,1.0748348417257052,49.0166
1.205,1.0759999752044678,49.2716
1.21,1.0759999752044678,49.5277
1.2149999999999999,1.0759999752044678,49.7811
1.2199999999999998,1.0768292830029176,50.0294
1.225,1.0779999494552612,50.2712
1.23,1.0779999494552612,50.5072
1.2349999999999999,1.0779999494552612,50.7405
1.2399999999999998,1.0779999494552612,50.9748
1.245,1.0786217527216038,51.2137
1.25,1.0800000429153442,51.4604
1.255,1.0800000429153442,51.7151
1.2599999999999998,1.0806650418904102,51.9759
1.2650000000000001,1.0820000171661377,52.2379
1.27,1.0820000171661377,52.4956
1.275,1.0820000171661377,52.7446
1.2799999999999998,1.0826154874271758,52.9818
1.2850000000000001,1.0839999914169312,53.2067
1.29,1.0839999914169312,53.4202
1.295,1.0839999914169312,53.6254
1.2999999999999998,1.0847298721101368,53.8265
1.3050000000000002,1.0859999656677246,54.027
1.31,1.0859999656677246,54.2291
1.315,1.0859999656677246,54.4327
1.3199999999999998,1.0859999656677246,54.637
1.3249999999999997,1.0867652145855988,54.8414
1.33,1.0880000591278076,55.045
1.335,1.0880000591278076,55.2473
1.3399999999999999,1.0880000591278076,55.4484
1.3449999999999998,1.0888270920260428,55.6483
1.35,1.090000033378601,55.8479
1.355,1.090000033378601,56.0472
1.3599999999999999,1.090000033378601,56.2457
1.3649999999999998,1.090000033378601,56.4432
1.37,1.090000033378601,56.6396
1.375,1.0907377458254288,56.8344
1.38,1.0920000076293943,57.0263
1.3849999999999998,1.0926162132197919,57.2156
1.3900000000000001,1.093999981880188,57.4028
1.395,1.093999981880188,57.5896
1.4,1.093999981880188,57.7775
1.4049999999999998,1.093999981880188,57.9682
1.4100000000000001,1.0948132994783946,58.1646
1.415,1.0959999561309814,58.3698
1.42,1.0959999561309814,58.5862
1.4249999999999998,1.0959999561309814,58.8155
1.4300000000000002,1.0959999561309814,59.0581
1.435,1.0959999561309814,59.3119
1.44,1.0968375542741902,59.5732
1.4449999999999998,1.0980000495910645,59.8364
1.4499999999999997,1.0980000495910645,60.0953
1.455,1.0980000495910645,60.3451
1.46,1.0980000495910645,60.5821
1.4649999999999999,1.0980000495910645,60.8056
1.4699999999999998,1.098823354488725,61.0181
1.475,1.100000023841858,61.2235
1.48,1.100000023841858,61.4255
1.4849999999999999,1.100000023841858,61.626
1.4899999999999998,1.100000023841858,61.8266
1.495,1.100000023841858,62.028
1.5,1.1008244393555016,62.2302
1.505,1.1019999980926514,62.4331
1.5099999999999998,1.1019999980926514,62.6367
1.5150000000000001,1.1019999980926514,62.8427
1.52,1.1019999980926514,63.052
1.525,1.1019999980926514,63.2665
1.5299999999999998,1.1028352469347456,63.4877
1.5350000000000001,1.1039999723434448,63.7166
1.54,1.1039999723434448,63.9526
1.545,1.1039999723434448,64.1948
1.5499999999999998,1.1039999723434448,64.4421
1.5550000000000002,1.1059999465942385,64.691
1.56,1.1059999465942385,64.9389
1.565,1.1059999465942385,65.1829
1.5699999999999998,1.1059999465942385,65.4216
1.5749999999999997,1.1059999465942385,65.6567
1.58,1.106748807628905,65.8895
1.585,1.1080000400543213,66.1234
1.5899999999999999,1.1080000400543213,66.3599
1.5949999999999998,1.1080000400543213,66.5996
1.6,1.1080000400543213,66.8434
1.605,1.1088434433234353,67.0909
1.6099999999999999,1.1100000143051147,67.3382
1.6149999999999998,1.1100000143051147,67.5791
1.62,1.1100000143051147,67.8096
1.625,1.1100000143051147,68.027
1.63,1.1100000143051147,68.2288
1.6349999999999998,1.1100000143051147,68.4163
1.6400000000000001,1.1107796128473038,68.5925
1.645,1.1119999885559082,68.7616
1.65,1.1119999885559082,68.9277
1.6549999999999998,1.1119999885559082,69.0964
1.6600000000000001,1.1119999885559082,69.2713
1.665,1.1119999885559082,69.4544
1.67,1.1119999885559082,69.646
1.6749999999999998,1.1119999885559082,69.8447
1.6789999999999998,1.1119999885559082,70.0083
1.6800000000000002,1.1119999885559082,70.0499
1.685,1.1127506618418226,70.2625
1.69,1.1139999628067017,70.482
1.6949999999999998,1.1139999628067017,70.7008
1.6999999999999997,1.1139999628067017,70.9025
1.705,1.1139999628067017,71.0694
1.71,1.1139999628067017,71.1921
1.7149999999999999,1.1139999628067017,71.269
1.7199999999999998,1.1139999628067017,71.3031
1.725,1.1147779116388632,71.2996
1.73,1.116000056266785,71.2655
1.7349999999999999,1.116000056266785,71.2068
1.7399999999999998,1.116000056266785,71.1293
1.745,1.116000056266785,71.0385
1.75,1.116000056266785,70.9386
1.755,1.116000056266785,70.8323
1.7599999999999998,1.116000056266785,70.7222
1.7650000000000001,1.116000056266785,70.6095
1.77,1.116000056266785,70.4914
1.775,1.116000056266785,70.3634
1.7799999999999998,1.116000056266785,70.221
1.7850000000000001,1.116000056266785,70.0621
1.79,1.116000056266785,69.8854
1.795,1.116000056266785,69.6885
1.7999999999999998,1.116000056266785,69.4696
1.8050000000000002,1.116000056266785,69.2271
1.81,1.116000056266785,68.9595
1.815,1.116000056266785,68.669
1.8199999999999998,1.116000056266785,68.3608
1.8249999999999997,1.116000056266785,68.0406
1.83,1.116000056266785,67.7152
1.835,1.116000056266785,67.3884
1.8399999999999999,1.116000056266785,67.0647
1.8449999999999998,1.116000056266785,66.747
1.85,1.116000056266785,66.4366
1.855,1.116000056266785,66.1345
1.8599999999999999,1.116000056266785,65.8407
1.8649999999999998,1.116000056266785,65.5543
1.87,1.116000056266785,65.2744
1.875,1.116000056266785,64.9989
1.88,1.116000056266785,64.7245
1.8849999999999998,1.116000056266785,64.4479
1.8900000000000001,1.116000056266785,64.1653
1.895,1.116000056266785,63.8741
1.9,1.115164839650107,63.5728
1.9049999999999998,1.1139999628067017,63.2609
1.9100000000000001,1.1139999628067017,62.9389
1.915,1.1139999628067017,62.6074
1.92,1.1139999628067017,62.268
1.9249999999999998,1.1139999628067017,61.9244
1.9300000000000002,1.1139999628067017,61.5803
1.935,1.1139999628067017,61.2381
1.94,1.1139999628067017,60.9001
1.9449999999999998,1.1139999628067017,60.567
1.9499999999999997,1.1132152459147142,60.2379
1.955,1.1119999885559082,59.9117
1.96,1.1119999885559082,59.5857
1.9649999999999999,1.1119999885559082,59.2588
1.9699999999999998,1.1119999885559082,58.9312
1.975,1.1119999885559082,58.6052
1.98,1.1119999885559082,58.2846
1.9849999999999999,1.1111503016405704,57.9742
1.9899999999999998,1.1100000143051147,57.6777
1.995,1.1100000143051147,57.3956
2.0,1.1100000143051147,57.1264
2.005,1.1100000143051147,56.8682
2.01,1.1100000143051147,56.6176
2.015,1.1100000143051147,56.371
2.02,1.1100000143051147,56.1243
2.025,1.1100000143051147,55.8751
2.03,1.1091651658735597,55.623
2.035,1.1080000400543213,55.368
2.04,1.1080000400543213,55.1099
2.045,1.1080000400543213,54.8494
2.05,1.1080000400543213,54.5855
2.055,1.1080000400543213,54.3162
2.06,1.1080000400543213,54.0403
2.065,1.1072096681119687,53.757
2.07,1.1059999465942385,53.4653
2.0749999999999997,1.1059999465942385,53.1645
2.08,1.1059999465942385,52.8564
2.085,1.1051743157849636,52.5426
2.09,1.1039999723434448,52.2269
2.0949999999999998,1.1039999723434448,51.913
2.1,1.1039999723434448,51.6034
2.105,1.1039999723434448,51.3016
2.11,1.103173111348798,51.0095
2.1149999999999998,1.1019999980926514,50.7277
2.12,1.1019999980926514,50.456
2.125,1.1019999980926514,50.1926
2.13,1.1019999980926514,49.9345
2.135,1.1019999980926514,49.6789
2.14,1.1012103688461468,49.4238
2.145,1.100000023841858,49.1684
2.15,1.100000023841858,48.9125
2.155,1.100000023841858,48.6573
2.16,1.100000023841858,48.4035
2.165,1.100000023841858,48.1525
2.17,1.0992536829004442,47.9048
2.175,1.0980000495910645,47.6604
2.18,1.0980000495910645,47.4168
2.185,1.0980000495910645,47.1713
2.19,1.0980000495910645,46.9219
2.195,1.0980000495910645,46.6679
2.1999999999999997,1.097268231610994,46.4084
2.205,1.0959999561309814,46.1438
2.21,1.0959999561309814,45.8759
2.215,1.0959999561309814,45.6061
2.2199999999999998,1.0951553704278103,45.3364
2.225,1.093999981880188,45.0668
2.23,1.093999981880188,44.7961
2.235,1.093999981880188,44.5218
2.2399999999999998,1.0931104859758114,44.2424
2.245,1.0920000076293943,43.9568
2.25,1.0920000076293943,43.664
2.255,1.0920000076293943,43.365
2.26,1.0911708809368734,43.0616
2.265,1.090000033378601,42.7573
2.27,1.0891117639455075,42.4564
2.275,1.0880000591278076,42.1621
2.28,1.0880000591278076,41.8767
2.285,1.0871553582137432,41.5996
2.29,1.0859999656677246,41.3282
2.295,1.0859999656677246,41.0606
2.3,1.0859999656677246,40.7952
2.305,1.0852400714563073,40.5302
2.31,1.0839999914169312,40.265
2.315,1.0831548987302464,40.001
2.32,1.0820000171661377,39.7405
2.3249999999999997,1.0820000171661377,39.4873
2.33,1.0820000171661377,39.2457
2.335,1.0820000171661377,39.0171
2.34,1.0812263501187678,38.8017
2.3449999999999998,1.0800000429153442,38.5976
2.35,1.0800000429153442,38.4017
2.355,1.0800000429153442,38.2109
2.36,1.0791858838546078,38.0216
2.3649999999999998,1.0779999494552612,37.8314
2.37,1.0779999494552612,37.6403
2.375,1.0771459674657078,37.4486
2.38,1.0759999752044678,37.2574
2.385,1.0759999752044678,37.0671
2.39,1.0759999752044678,36.8769
2.395,1.0759999752044678,36.6846
2.4,1.0753522805952775,36.4887
2.405,1.0740000009536743,36.287
2.41,1.0740000009536743,36.0781
2.415,1.0733846236710876,35.8608
2.42,1.0720000267028809,35.6342
2.425,1.0720000267028809,35.3988
2.43,1.071204732076177,35.156
2.435,1.0700000524520874,34.9092
2.44,1.0691814186934674,34.6613
2.445,1.0679999589920044,34.4143
2.4499999999999997,1.0679999589920044,34.1701
2.4549999999999996,1.067155949039248,33.9304
2.4599999999999995,1.065999984741211,33.6937
2.4650000000000003,1.065999984741211,33.4593
2.47,1.065999984741211,33.2245
2.475,1.0652083258948275,32.9872
2.48,1.0640000104904177,32.7467
2.485,1.063152744885844,32.5023
2.4899999999999998,1.062000036239624,32.2559
2.4949999999999997,1.062000036239624,32.0113
2.4999999999999996,1.0611111376422828,31.7723
2.5050000000000003,1.059999942779541,31.5421
2.5100000000000002,1.059999942779541,31.3238
2.515,1.059999942779541,31.1186
2.52,1.0592173821484803,30.9246
2.525,1.0579999685287476,30.7389
2.53,1.0579999685287476,30.5584
2.5349999999999997,1.0579999685287476,30.3799
2.5399999999999996,1.0571604470659628,30.2009
2.5450000000000004,1.055999994277954,30.021
2.5500000000000003,1.055211678774492,29.8398
2.555,1.0540000200271606,29.6566
