Time,Displacement,Force,Compressive displacement,voltage_1
0.0,0.0933,0.0421,0.0,-0.0016
0.005,0.0933,0.041,0.0,-0.0016
0.01,0.0933,0.0405,0.0,-0.0016
0.015,0.0933,0.0403,0.0,-0.0016
0.02,0.0933,0.0401,0.0,-0.0016
0.025,0.0933,0.0407,0.0,-0.0016
0.03,0.0933,0.0417,0.0,-0.0016
0.035,0.0933,0.0425,0.0,-0.0016
0.04,0.0933,0.0429,0.0,-0.0016
0.045,0.0934,0.0433,0.0001,-0.0016
0.05,0.0935,0.0434,0.0002,-0.0016
0.055,0.0937,0.0437,0.0004,-0.0016
0.06,0.0941,0.0462,0.0008,-0.0016
0.065,0.0947,0.0519,0.0014,-0.0016
0.07,0.0955,0.0621,0.0022,-0.0016
0.075,0.0966,0.0793,0.0033,-0.0016
0.08,0.0979,0.1068,0.0046,-0.0016
0.085,0.0994,0.1468,0.0061,-0.0016
0.09,0.1011,0.2012,0.0078,-0.0016
0.095,0.1027,0.2712,0.0094,-0.0016
0.1,0.1043,0.3562,0.011,-0.0016
0.105,0.106,0.4553,0.0127,-0.0016
0.11,0.1077,0.5671,0.0144,-0.0016
0.115,0.1095,0.6904,0.0162,-0.0016
0.12,0.1113,0.8245,0.018,-0.0016
0.125,0.1131,0.9675,0.0198,-0.0016
0.13,0.1148,1.1182,0.0215,-0.0016
0.135,0.1164,1.274,0.0231,-0.0016
0.14,0.1178,1.4312,0.0245,-0.0016
0.145,0.1191,1.587,0.0258,-0.0016
0.15,0.1203,1.7387,0.027,-0.0016
0.155,0.1215,1.8842,0.0282,-0.0016
0.16,0.1227,2.0234,0.0294,-0.0016
0.165,0.1239,2.1569,0.0306,-0.0016
0.17,0.1253,2.2861,0.032,-0.0016
0.175,0.1266,2.4125,0.0333,-0.0016
0.18,0.1281,2.5383,0.0348,-0.0016
0.185,0.1295,2.6649,0.0362,-0.0016
0.19,0.1309,2.794,0.0376,-0.0016
0.195,0.1323,2.9256,0.039,-0.0016
0.2,0.1337,3.06,0.0404,-0.0016
0.205,0.1351,3.1963,0.0418,-0.0016
0.21,0.1365,3.3344,0.0432,-0.0016
0.215,0.1381,3.4752,0.0448,-0.0016
0.22,0.1397,3.6201,0.0464,-0.0016
0.225,0.1413,3.7707,0.048,-0.0016
0.23,0.1429,3.9271,0.0496,-0.0016
0.235,0.1446,4.0896,0.0513,-0.0016
0.24,0.1463,4.2587,0.053,-0.0016
0.245,0.1479,4.4329,0.0546,-0.0016
0.25,0.1495,4.6112,0.0562,-0.0016
0.255,0.1511,4.7927,0.0578,-0.0016
0.26,0.1526,4.9767,0.0593,-0.0016
0.265,0.154,5.1614,0.0607,-0.0016
0.27,0.1555,5.3445,0.0622,-0.0016
0.275,0.1571,5.5262,0.0638,-0.0016
0.28,0.1587,5.7074,0.0654,-0.0016
0.285,0.1603,5.8893,0.067,-0.0016
0.29,0.1621,6.0736,0.0688,-0.0016
0.295,0.1639,6.2622,0.0706,-0.0016
0.3,0.1656,6.4562,0.0723,-0.0016
0.305,0.1673,6.6562,0.074,-0.0016
0.31,0.1688,6.8605,0.0755,-0.0016
0.315,0.1702,7.0661,0.0769,-0.0016
0.32,0.1715,7.2688,0.0782,-0.0016
0.325,0.1727,7.4647,0.0794,-0.0016
0.33,0.174,7.6524,0.0807,-0.0016
0.335,0.1752,7.8319,0.0819,-0.0016
0.34,0.1765,8.0045,0.0832,-0.0016
0.345,0.1779,8.1722,0.0846,-0.0016
0.35,0.1793,8.3381,0.086,-0.0016
0.355,0.1807,8.504,0.0874,-0.0016
0.36,0.1821,8.6717,0.0888,-0.0016
0.365,0.1835,8.842,0.0902,-0.0016
0.37,0.1849,9.0146,0.0916,-0.0016
0.375,0.1863,9.1886,0.093,-0.0016
0.38,0.1877,9.3635,0.0944,-0.0016
0.385,0.1891,9.5408,0.0958,-0.0016
0.39,0.1906,9.7227,0.0973,-0.0016
0.395,0.1922,9.909,0.0989,-0.0016
0.4,0.1938,10.1001,0.1004,-0.0016
0.405,0.1954,10.2979,0.1021,-0.0016
0.41,0.197,10.5024,0.1037,-0.0016
0.415,0.1986,10.713,0.1053,-0.0016
0.42,0.2002,10.9296,0.1069,-0.0016
0.425,0.2018,11.1506,0.1085,-0.0016
0.43,0.2032,11.374,0.1099,-0.0016
0.435,0.2046,11.5961,0.1113,-0.0016
0.44,0.2059,11.8142,0.1126,-0.0016
0.445,0.2073,12.0268,0.114,-0.0016
0.45,0.2087,12.2344,0.1154,-0.0016
0.455,0.2102,12.439,0.1169,-0.0016
0.46,0.2117,12.642,0.1184,-0.0016
0.465,0.2133,12.8467,0.12,-0.0016
0.47,0.215,13.0555,0.1217,-0.0016
0.475,0.2167,13.271,0.1234,-0.0016
0.48,0.2183,13.4937,0.125,-0.0016
0.485,0.2198,13.7212,0.1265,-0.0016
0.49,0.2211,13.9502,0.1278,-0.0016
0.495,0.2223,14.1759,0.129,-0.0016
0.5,0.2235,14.3945,0.1302,-0.0016
0.505,0.2246,14.6034,0.1313,-0.0016
0.51,0.2258,14.8016,0.1325,-0.0016
0.515,0.2271,14.9903,0.1338,-0.0016
0.52,0.2284,15.1715,0.1351,-0.0016
0.525,0.2298,15.3491,0.1365,-0.0016
0.53,0.2312,15.5267,0.1379,-0.0016
0.535,0.2327,15.7075,0.1394,-0.0016
0.54,0.2342,15.8939,0.1409,-0.0016
0.545,0.2356,16.0866,0.1423,-0.0016
0.55,0.2371,16.2849,0.1438,-0.0016
0.555,0.2386,16.4888,0.1453,-0.0016
0.56,0.2401,16.6982,0.1468,-0.0016
0.565,0.2417,16.9131,0.1484,-0.0016
0.57,0.2434,17.1345,0.1501,-0.0016
0.575,0.2451,17.3627,0.1518,-0.0016
0.58,0.2468,17.5983,0.1535,-0.0016
0.585,0.2486,17.8427,0.1553,-0.0016
0.59,0.2504,18.0951,0.1571,-0.0016
0.595,0.2521,18.3537,0.1588,-0.0016
0.6,0.2537,18.6171,0.1604,-0.0016
0.605,0.2552,18.8826,0.1619,-0.0016
0.61,0.2567,19.1462,0.1634,-0.0016
0.615,0.2581,19.4037,0.1648,-0.0016
0.62,0.2595,19.6529,0.1662,-0.0016
0.625,0.2609,19.8935,0.1676,-0.0016
0.63,0.2625,20.1266,0.1692,-0.0016
0.635,0.2641,20.3551,0.1708,-0.0016
0.64,0.2658,20.5833,0.1725,-0.0016
0.645,0.2676,20.8151,0.1743,-0.0016
0.65,0.2693,21.0527,0.176,-0.0016
0.655,0.271,21.2972,0.1777,-0.0016
0.66,0.2725,21.5473,0.1792,-0.0016
0.665,0.2739,21.7985,0.1806,-0.0016
0.67,0.2752,22.0459,0.1819,-0.0016
0.675,0.2764,22.2854,0.1831,-0.0016
0.68,0.2776,22.5137,0.1843,-0.0016
0.685,0.2788,22.7298,0.1855,-0.0016
0.69,0.2801,22.9353,0.1868,-0.0016
0.695,0.2815,23.1332,0.1882,-0.0016
0.7,0.283,23.3276,0.1897,-0.0016
0.705,0.2845,23.5229,0.1912,-0.0016
0.71,0.2861,23.7223,0.1928,-0.0016
0.715,0.2876,23.9284,0.1943,-0.0016
0.72,0.289,24.1413,0.1957,-0.0016
0.725,0.2906,24.3598,0.1973,-0.0016
0.73,0.2921,24.5831,0.1988,-0.0016
0.735,0.2936,24.8105,0.2003,-0.0016
0.74,0.2952,25.042,0.2019,-0.0016
0.745,0.2968,25.2781,0.2035,-0.0016
0.75,0.2985,25.52,0.2052,-0.0016
0.755,0.3002,25.7679,0.2069,-0.0016
0.76,0.302,26.0226,0.2087,-0.0016
0.765,0.3037,26.2845,0.2104,-0.0016
0.77,0.3053,26.5518,0.212,-0.0016
0.775,0.3069,26.8215,0.2136,-0.0016
0.78,0.3085,27.091,0.2152,-0.0016
0.785,0.3099,27.3571,0.2166,-0.0016
0.79,0.3113,27.6173,0.218,-0.0016
0.795,0.3128,27.8702,0.2195,-0.0016
0.8,0.3142,28.1161,0.2209,-0.0016
0.805,0.3158,28.3568,0.2225,-0.0016
0.81,0.3174,28.5949,0.2241,-0.0016
0.815,0.3191,28.8347,0.2258,-0.0016
0.82,0.3208,29.0785,0.2275,-0.0016
0.825,0.3225,29.3275,0.2292,-0.0016
0.83,0.324,29.5802,0.2307,-0.0016
0.835,0.3254,29.8338,0.2321,-0.0016
0.84,0.3267,30.0843,0.2334,-0.0016
0.845,0.3279,30.3271,0.2346,-0.0016
0.85,0.3291,30.5591,0.2358,-0.0016
0.855,0.3303,30.7799,0.237,-0.0016
0.86,0.3316,30.9906,0.2383,-0.0016
0.865,0.333,31.1945,0.2397,-0.0016
0.87,0.3344,31.3956,0.2411,-0.0016
0.875,0.3359,31.5977,0.2426,-0.0016
0.88,0.3374,31.8037,0.2441,-0.0016
0.885,0.3389,32.0155,0.2456,-0.0016
0.89,0.3404,32.2341,0.2471,-0.0016
0.895,0.3419,32.459,0.2486,-0.0016
0.9,0.3433,32.6895,0.25,-0.0016
0.905,0.3449,32.9254,0.2516,-0.0016
0.91,0.3464,33.1653,0.2531,-0.0016
0.915,0.3481,33.4096,0.2548,-0.0016
0.92,0.3498,33.6586,0.2565,-0.0016
0.925,0.3515,33.9136,0.2582,-0.0016
0.93,0.3532,34.1751,0.2599,-0.0016
0.935,0.3549,34.4437,0.2616,-0.0016
0.94,0.3566,34.7186,0.2633,-0.0016
0.945,0.3582,34.9983,0.2649,-0.0016
0.95,0.3598,35.2799,0.2665,-0.0016
0.955,0.3613,35.5592,0.268,-0.0016
0.96,0.3627,35.8332,0.2694,-0.0016
0.965,0.3641,36.1,0.2708,-0.0016
0.97,0.3656,36.3593,0.2723,-0.0016
0.975,0.3672,36.612,0.2739,-0.0016
0.98,0.3688,36.8606,0.2755,-0.0016
0.985,0.3704,37.1078,0.2771,-0.0016
0.99,0.372,37.3557,0.2787,-0.0016
0.995,0.3736,37.606,0.2803,-0.0016
1.0,0.3752,37.86,0.2819,-0.0016
1.005,0.3766,38.1161,0.2833,-0.0016
1.01,0.3779,38.3707,0.2846,-0.0016
1.015,0.3791,38.6197,0.2858,-0.0016
1.02,0.3803,38.8595,0.287,-0.0016
1.025,0.3815,39.0879,0.2882,-0.0016
1.03,0.3827,39.3054,0.2894,-0.0016
1.035,0.384,39.5139,0.2907,-0.0016
1.04,0.3854,39.716,0.2921,-0.009
1.045,0.3867,39.9154,0.2934,-0.238
1.05,0.3882,40.1157,0.2949,-0.7673
1.055,0.3897,40.3202,0.2964,-1.444
1.06,0.3912,40.5307,0.2979,-2.1617
1.065,0.3926,40.7471,0.2993,-2.8488
1.07,0.394,40.9683,0.3007,-3.462
1.075,0.3954,41.1934,0.3021,-3.9793
1.08,0.3968,41.421,0.3035,-4.3942
1.085,0.3983,41.6516,0.305,-4.7107
1.09,0.3998,41.886,0.3065,-4.9389
1.095,0.4014,42.1258,0.3081,-5.0926
1.1,0.4031,42.3718,0.3098,-5.1863
1.105,0.4047,42.6243,0.3114,-5.2341
1.11,0.4064,42.8837,0.3131,-5.2487
1.115,0.4081,43.1493,0.3148,-5.2408
1.12,0.4096,43.4202,0.3163,-5.2192
1.125,0.4111,43.6939,0.3178,-5.1904
1.13,0.4126,43.9665,0.3193,-5.1594
1.135,0.414,44.2354,0.3207,-5.1293
1.14,0.4155,44.4985,0.3222,-5.1023
1.145,0.4169,44.7547,0.3236,-5.0793
1.15,0.4183,45.0044,0.325,-5.0607
1.155,0.4199,45.2496,0.3266,-5.0465
1.16,0.4215,45.493,0.3282,-5.0361
1.165,0.4231,45.738,0.3298,-5.0291
1.17,0.4248,45.9878,0.3315,-5.0247
1.175,0.4264,46.2429,0.3331,-5.0224
1.18,0.428,46.504,0.3347,-5.0216
1.185,0.4294,46.768,0.3361,-5.0219
1.19,0.4307,47.0301,0.3374,-5.0227
1.195,0.4319,47.2857,0.3386,-5.024
1.2,0.433,47.5302,0.3397,-5.0253
1.205,0.4342,47.7613,0.3409,-5.0266
1.21,0.4355,47.9795,0.3422,-5.0278
1.215,0.4368,48.1874,0.3435,-5.0288
1.22,0.4381,48.3883,0.3448,-5.0297
1.225,0.4395,48.5862,0.3462,-5.0303
1.23,0.441,48.7855,0.3477,-5.0308
1.235,0.4425,48.9896,0.3492,-5.0311
1.24,0.444,49.2013,0.3507,-5.0313
1.245,0.4454,49.421,0.3521,-5.0315
1.25,0.4469,49.6478,0.3536,-5.0315
1.255,0.4484,49.8816,0.3551,-5.0315
1.26,0.45,50.122,0.3567,-5.0314
1.265,0.4516,50.3692,0.3583,-5.0314
1.27,0.4534,50.625,0.3601,-5.0313
1.275,0.4552,50.891,0.3619,-5.0312
1.28,0.457,51.1684,0.3637,-5.0312
1.285,0.4589,51.4579,0.3656,-5.0311
1.29,0.4607,51.7591,0.3674,-5.0311
1.295,0.4626,52.0711,0.3692,-5.031
1.3,0.4643,52.39,0.371,-5.031
1.305,0.4659,52.711,0.3726,-5.031
1.31,0.4675,53.0295,0.3742,-5.031
1.315,0.4691,53.3421,0.3758,-5.031
1.32,0.4708,53.6481,0.3775,-5.031
1.325,0.4724,53.947,0.3791,-5.031
1.33,0.4741,54.2407,0.3808,-5.031
1.335,0.4759,54.5328,0.3826,-5.031
1.34,0.4776,54.8247,0.3843,-5.031
1.345,0.4792,55.1161,0.3859,-5.031
1.35,0.4807,55.405,0.3874,-5.031
1.355,0.4821,55.6884,0.3888,-5.031
1.36,0.4833,55.9613,0.39,-5.0311
1.365,0.4845,56.2198,0.3912,-5.0311
1.37,0.4856,56.4616,0.3923,-5.0311
1.375,0.4868,56.6863,0.3935,-5.0311
1.38,0.488,56.8956,0.3947,-5.0311
1.385,0.4892,57.0919,0.3959,-5.0311
1.39,0.4905,57.2796,0.3972,-5.0311
1.395,0.4918,57.4634,0.3985,-5.0311
1.4,0.4932,57.6482,0.3999,-5.031
1.405,0.4945,57.8358,0.4012,-5.031
1.41,0.4958,58.0275,0.4025,-5.031
1.415,0.4971,58.2245,0.4038,-5.031
1.42,0.4985,58.4272,0.4052,-5.031
1.425,0.4998,58.6356,0.4065,-5.031
1.43,0.5013,58.8498,0.408,-5.031
1.435,0.5027,59.0694,0.4094,-5.031
1.44,0.5043,59.2961,0.411,-5.0311
1.445,0.5059,59.5312,0.4126,-5.0311
1.45,0.5075,59.7757,0.4142,-5.0311
1.455,0.5092,60.0297,0.4159,-5.0311
1.46,0.5109,60.294,0.4176,-5.0311
1.465,0.5126,60.5691,0.4193,-5.0311
1.47,0.5144,60.854,0.4211,-5.0311
1.475,0.5161,61.1473,0.4228,-5.0311
1.48,0.5178,61.4474,0.4245,-5.0311
1.485,0.5195,61.7527,0.4262,-5.0311
1.49,0.5213,62.0625,0.428,-5.0311
1.495,0.5232,62.3772,0.4299,-5.031
1.5,0.5251,62.6974,0.4318,-5.031
1.505,0.527,63.0233,0.4337,-5.031
1.51,0.5289,63.3558,0.4356,-5.031
1.515,0.5308,63.6945,0.4375,-5.031
1.52,0.5325,64.0363,0.4392,-5.031
1.525,0.534,64.3759,0.4407,-5.031
1.53,0.5354,64.7071,0.4421,-5.031
1.535,0.5366,65.0229,0.4433,-5.031
1.54,0.5377,65.3179,0.4444,-5.031
1.545,0.5388,65.5884,0.4455,-5.031
1.55,0.5399,65.8329,0.4466,-5.031
1.555,0.541,66.0545,0.4477,-5.031
1.56,0.5422,66.258,0.4489,-5.031
1.565,0.5433,66.4473,0.45,-5.031
1.57,0.5445,66.6266,0.4512,-5.031
1.575,0.5457,66.8004,0.4524,-5.031
1.58,0.5469,66.9714,0.4536,-5.031
1.585,0.548,67.1418,0.4547,-5.031
1.59,0.5492,67.3146,0.4559,-5.031
1.595,0.5505,67.4914,0.4572,-5.031
1.6,0.5518,67.6738,0.4585,-5.031
1.605,0.5533,67.8638,0.46,-5.031
1.61,0.5548,68.0654,0.4615,-5.0311
1.615,0.5563,68.2811,0.463,-5.0311
1.62,0.558,68.5127,0.4647,-5.031
1.625,0.5598,68.7628,0.4665,-5.031
1.63,0.5616,69.0324,0.4683,-5.031
1.635,0.5633,69.321,0.47,-5.031
1.64,0.5651,69.6274,0.4718,-5.031
1.645,0.5667,69.9468,0.4734,-5.031
1.646,0.5671,70.0117,0.4738,-5.031
1.647,0.5674,70.0769,0.4741,-5.031
1.652,0.5689,70.4048,0.4756,-5.031
1.657,0.57,70.7304,0.4767,-5.031
1.662,0.5705,71.0406,0.4772,-5.031
1.667,0.5704,71.3153,0.4771,-5.031
1.672,0.5704,71.5355,0.4771,-5.031
1.677,0.5703,71.6939,0.477,-5.031
1.682,0.5703,71.7924,0.477,-5.031
1.687,0.5701,71.8371,0.4768,-5.031
1.692,0.5701,71.8367,0.4768,-5.031
1.697,0.5699,71.8004,0.4766,-5.031
1.702,0.5697,71.7347,0.4764,-5.0309
1.707,0.5695,71.6466,0.4762,-5.031
1.712,0.5692,71.5423,0.4759,-5.031
1.717,0.5689,71.4271,0.4756,-5.031
1.722,0.5687,71.3048,0.4754,-5.031
1.727,0.5683,71.1794,0.475,-5.031
1.732,0.5677,71.0496,0.4744,-5.031
1.737,0.5669,70.9103,0.4736,-5.031
1.742,0.566,70.7567,0.4727,-5.031
1.747,0.5652,70.5873,0.4719,-5.031
1.752,0.5642,70.4004,0.4709,-5.031
1.757,0.563,70.194,0.4697,-5.031
1.762,0.5617,69.9652,0.4684,-5.031
1.767,0.5602,69.7104,0.4669,-5.031
1.772,0.5585,69.4255,0.4652,-5.031
1.777,0.5568,69.1067,0.4635,-5.0311
1.782,0.5552,68.7562,0.4619,-5.0311
1.787,0.5536,68.3791,0.4603,-5.0311
1.792,0.552,67.9825,0.4587,-5.0311
1.797,0.5505,67.572,0.4572,-5.0311
1.802,0.549,67.1543,0.4557,-5.0311
1.807,0.5476,66.7364,0.4543,-5.0311
1.812,0.5463,66.3243,0.453,-5.0311
1.817,0.545,65.9239,0.4517,-5.0311
1.822,0.5439,65.5409,0.4506,-5.0311
1.827,0.5428,65.1786,0.4495,-5.0311
1.832,0.5418,64.8389,0.4485,-5.0311
1.837,0.5407,64.5205,0.4474,-5.0311
1.842,0.5396,64.2204,0.4463,-5.0311
1.847,0.5384,63.9349,0.4451,-5.0311
1.852,0.5373,63.6596,0.444,-5.0311
1.857,0.5361,63.3901,0.4428,-5.0311
1.862,0.5348,63.1235,0.4415,-5.0311
1.867,0.5336,62.857,0.4403,-5.0311
1.872,0.5324,62.5883,0.4391,-5.0311
1.877,0.5312,62.3175,0.4379,-5.0311
1.882,0.5299,62.044,0.4366,-5.031
1.887,0.5285,61.7661,0.4352,-5.031
1.892,0.5271,61.4824,0.4338,-5.031
1.897,0.5256,61.1904,0.4323,-5.031
1.902,0.524,60.888,0.4307,-5.031
1.907,0.5223,60.572,0.429,-5.031
1.912,0.5205,60.2405,0.4272,-5.031
1.917,0.5186,59.8909,0.4253,-5.031
1.922,0.5166,59.5216,0.4233,-5.031
1.927,0.5147,59.1328,0.4214,-5.031
1.932,0.5127,58.726,0.4194,-5.031
1.937,0.5108,58.3044,0.4175,-5.031
1.942,0.5089,57.8728,0.4156,-5.0311
1.947,0.5071,57.4352,0.4138,-5.0311
1.952,0.5052,56.9956,0.4119,-5.0311
1.957,0.5034,56.5579,0.4101,-5.0311
1.962,0.5017,56.1258,0.4084,-5.0311
1.967,0.5,55.7026,0.4067,-5.0311
1.972,0.4984,55.2907,0.4051,-5.0311
1.977,0.4968,54.8911,0.4035,-5.0311
1.982,0.4953,54.5056,0.402,-5.0311
1.987,0.4939,54.1366,0.4006,-5.0311
1.992,0.4927,53.7857,0.3994,-5.0311
1.997,0.4914,53.4536,0.3981,-5.0311
2.002,0.4902,53.1414,0.3969,-5.0311
2.007,0.4891,52.848,0.3958,-5.031
2.012,0.4879,52.5709,0.3946,-5.031
2.017,0.4867,52.3069,0.3933,-5.031
2.022,0.4854,52.0521,0.3921,-5.031
2.027,0.4841,51.8029,0.3908,-5.031
2.032,0.4828,51.5569,0.3895,-5.031
2.037,0.4815,51.3116,0.3882,-5.031
2.042,0.4802,51.0658,0.3869,-5.031
2.047,0.4789,50.8175,0.3856,-5.031
2.052,0.4776,50.5656,0.3843,-5.031
2.057,0.4763,50.3103,0.383,-5.031
2.062,0.4748,50.0513,0.3815,-5.0311
2.067,0.4733,49.7868,0.38,-5.031
2.072,0.4718,49.5152,0.3785,-5.0311
2.077,0.4701,49.2343,0.3768,-5.0311
2.082,0.4684,48.9407,0.3751,-5.0311
2.087,0.4666,48.6326,0.3733,-5.0311
2.092,0.4648,48.3092,0.3715,-5.0311
2.097,0.463,47.9717,0.3697,-5.0311
2.102,0.4612,47.6225,0.3679,-5.0311
2.107,0.4595,47.2647,0.3662,-5.0311
2.112,0.4578,46.9021,0.3645,-5.0311
2.117,0.4561,46.5384,0.3628,-5.0311
2.122,0.4545,46.1761,0.3612,-5.0311
2.127,0.4527,45.8168,0.3594,-5.0311
2.132,0.4509,45.4604,0.3576,-5.0311
2.137,0.4491,45.105,0.3558,-5.0312
2.142,0.4472,44.749,0.3539,-5.0312
2.147,0.4454,44.3913,0.3521,-5.0312
2.152,0.4436,44.0317,0.3503,-5.0312
2.157,0.4421,43.6728,0.3488,-5.0312
2.162,0.4407,43.3202,0.3474,-5.0312
2.167,0.4394,42.9794,0.3461,-5.0312
2.172,0.4382,42.6557,0.3449,-5.0312
2.177,0.4369,42.3516,0.3436,-5.0312
2.182,0.4357,42.0672,0.3424,-5.0312
2.187,0.4344,41.8,0.3411,-5.0312
2.192,0.4331,41.5479,0.3398,-5.0312
2.197,0.4318,41.3062,0.3385,-5.0312
2.202,0.4305,41.0707,0.3372,-5.0312
2.207,0.4292,40.8385,0.3359,-5.0312
2.212,0.4279,40.6076,0.3346,-5.0312
2.217,0.4267,40.3786,0.3334,-5.0312
2.222,0.4255,40.1514,0.3322,-5.0312
2.227,0.4242,39.9256,0.3309,-5.0312
2.232,0.4229,39.7004,0.3296,-5.0313
2.237,0.4215,39.4736,0.3282,-5.0313
2.242,0.42,39.2422,0.3267,-5.0313
2.247,0.4184,39.0039,0.3251,-5.0313
2.252,0.4168,38.7564,0.3235,-5.0313
2.257,0.4152,38.4977,0.3219,-5.0313
2.262,0.4135,38.228,0.3202,-5.0313
2.267,0.4118,37.9483,0.3185,-5.0313
2.272,0.4102,37.6597,0.3169,-5.0313
2.277,0.4087,37.3648,0.3154,-5.0313
2.282,0.4072,37.0667,0.3139,-5.0312
2.287,0.4057,36.7691,0.3124,-5.0312
2.292,0.4043,36.4748,0.311,-5.0312
2.297,0.4028,36.1856,0.3095,-5.0312
2.302,0.4013,35.9024,0.308,-5.0312
2.307,0.3997,35.6238,0.3064,-5.0312
2.312,0.3981,35.3477,0.3048,-5.0312
2.317,0.3964,35.0712,0.3031,-5.0312
2.322,0.3947,34.792,0.3014,-5.0312
2.327,0.3931,34.509,0.2997,-5.0312
2.332,0.3914,34.2227,0.2981,-5.0312
2.337,0.39,33.9345,0.2967,-5.0312
2.342,0.3886,33.6476,0.2953,-5.0312
2.347,0.3873,33.3661,0.294,-5.0312
2.352,0.386,33.0947,0.2927,-5.0312
2.357,0.3848,32.8347,0.2915,-5.0312
2.362,0.3834,32.586,0.2901,-5.0312
2.367,0.382,32.346,0.2887,-5.0312
2.372,0.3806,32.1125,0.2873,-5.0312
2.377,0.3791,31.8819,0.2858,-5.0312
2.382,0.3777,31.6503,0.2844,-5.0312
2.387,0.3762,31.4164,0.2829,-5.0312
2.392,0.3747,31.1794,0.2814,-5.0312
2.397,0.3733,30.9401,0.28,-5.0312
2.402,0.3719,30.6989,0.2786,-5.0312
2.407,0.3704,30.456,0.2771,-5.0312
2.412,0.3689,30.2122,0.2756,-5.0312
2.417,0.3673,29.9674,0.274,-5.0312
2.422,0.3657,29.7184,0.2724,-5.0312
2.427,0.364,29.4641,0.2707,-5.0312
2.432,0.3623,29.2029,0.269,-5.0312
2.437,0.3606,28.9344,0.2673,-5.0312
2.442,0.3588,28.6593,0.2655,-5.0312
2.447,0.3572,28.3781,0.2639,-5.0312
2.452,0.3555,28.0933,0.2622,-5.0312
2.457,0.354,27.8075,0.2607,-5.0312
2.462,0.3524,27.5234,0.2591,-5.0312
2.467,0.3509,27.2425,0.2576,-5.0312
2.472,0.3493,26.9653,0.256,-5.0312
2.477,0.3477,26.692,0.2544,-5.0312
2.482,0.346,26.422,0.2527,-5.0312
2.487,0.3443,26.1525,0.251,-5.0312
2.492,0.3425,25.8816,0.2492,-5.0312
2.497,0.3408,25.6077,0.2475,-5.0312
2.502,0.3391,25.3298,0.2458,-5.0312
2.507,0.3376,25.0505,0.2443,-5.0312
2.512,0.3362,24.7734,0.2429,-5.0312
2.517,0.3348,24.5036,0.2415,-5.0312
2.522,0.3336,24.2455,0.2403,-5.0312
2.527,0.3323,24.0001,0.239,-5.0312
2.532,0.331,23.767,0.2377,-5.0312
2.537,0.3296,23.5443,0.2363,-5.0312
2.542,0.3281,23.3274,0.2348,-5.0313
2.547,0.3267,23.114,0.2334,-5.0313
2.552,0.3252,22.9015,0.2319,-5.0313
2.557,0.3238,22.6876,0.2305,-5.0313
2.562,0.3224,22.4725,0.2291,-5.0313
2.567,0.321,22.2577,0.2277,-5.0313
2.572,0.3196,22.0437,0.2263,-5.0313
2.577,0.3182,21.8305,0.2249,-5.0314
2.582,0.3167,21.6164,0.2234,-5.0313
2.587,0.3152,21.4001,0.2219,-5.0313
2.592,0.3136,21.1794,0.2203,-5.0313
2.597,0.312,20.9535,0.2187,-5.0313
2.602,0.3103,20.7223,0.217,-5.0313
2.607,0.3086,20.4845,0.2153,-5.0313
2.612,0.307,20.2405,0.2137,-5.0313
2.617,0.3053,19.9913,0.212,-5.0313
2.622,0.3038,19.7379,0.2105,-5.0313
2.627,0.3022,19.4833,0.2089,-5.0313
2.632,0.3007,19.2305,0.2074,-5.0312
2.637,0.2992,18.9818,0.2059,-5.0312
2.642,0.2977,18.7371,0.2044,-5.0312
2.647,0.2961,18.4955,0.2028,-5.0312
2.652,0.2944,18.2559,0.2011,-5.0312
2.657,0.2927,18.0163,0.1994,-5.0312
2.662,0.291,17.7753,0.1977,-5.0313
2.667,0.2892,17.5309,0.1959,-5.0313
2.672,0.2876,17.2839,0.1943,-5.0313
2.677,0.2861,17.0357,0.1928,-5.0313
2.682,0.2848,16.7907,0.1915,-5.0313
2.687,0.2835,16.5525,0.1902,-5.0313
2.692,0.2822,16.3239,0.1889,-5.0313
2.697,0.281,16.1076,0.1877,-5.0313
2.702,0.2798,15.9032,0.1865,-5.0313
2.707,0.2785,15.7089,0.1852,-5.0313
2.712,0.2771,15.5228,0.1838,-5.0313
2.717,0.2757,15.3408,0.1824,-5.0313
2.722,0.2742,15.1593,0.1809,-5.0313
2.727,0.2728,14.9764,0.1795,-5.0313
2.732,0.2715,14.7919,0.1782,-5.0313
2.737,0.2701,14.6063,0.1768,-5.0313
2.742,0.2687,14.4199,0.1754,-5.0313
2.747,0.2674,14.2331,0.1741,-5.0313
2.752,0.2659,14.0459,0.1726,-5.0313
2.757,0.2645,13.8568,0.1712,-5.0313
2.762,0.2629,13.6644,0.1696,-5.0313
2.767,0.2613,13.4674,0.168,-5.0312
2.772,0.2596,13.2647,0.1663,-5.0312
2.777,0.2579,13.0547,0.1646,-5.0312
2.782,0.2561,12.837,0.1628,-5.0312
2.787,0.2544,12.6116,0.1611,-5.0312
2.792,0.2527,12.3804,0.1594,-5.0312
2.797,0.2512,12.1468,0.1579,-5.0312
2.802,0.2497,11.9152,0.1564,-5.0312
2.807,0.2483,11.6886,0.155,-5.0312
2.812,0.2468,11.469,0.1535,-5.0312
2.817,0.2454,11.2564,0.1521,-5.0312
2.822,0.2439,11.0506,0.1506,-5.0312
2.827,0.2423,10.8506,0.149,-5.0312
2.832,0.2407,10.6535,0.1474,-5.0312
2.837,0.2389,10.4559,0.1456,-5.0312
